Wavelength (nm)	Reflectance
300	0.5744855
302	0.5851456
304	0.5928072
306	0.5972017
308	0.5983626
310	0.5963558
312	0.5912101
314	0.5829054
316	0.5713943
318	0.5567046
320	0.5388257
322	0.5178118
324	0.4938518
326	0.4673378
328	0.4388103
330	0.4090295
332	0.3791554
334	0.3504979
336	0.3248216
338	0.3036092
340	0.2882945
342	0.2801006
344	0.2794694
346	0.2864413
348	0.3003874
350	0.3202394
352	0.3445892
354	0.3724284
356	0.4022266
358	0.4325887
360	0.4616532
362	0.4879688
364	0.5102653
366	0.5277109
368	0.54025
370	0.548585
372	0.5533185
374	0.554833
376	0.5535788
378	0.5501578
380	0.5452213
382	0.5387829
384	0.5310272
386	0.5219829
388	0.5116378
390	0.5000176
392	0.4872588
394	0.4732941
396	0.4581644
398	0.4419247
400	0.4246259
402	0.4063751
404	0.3872804
406	0.3674212
408	0.3469447
410	0.3261027
412	0.3051066
414	0.2842755
416	0.2639645
418	0.2444887
420	0.226046
422	0.2089673
424	0.1936147
426	0.180292
428	0.1691444
430	0.1603272
432	0.1539587
434	0.1500471
436	0.1485877
438	0.1494972
440	0.1526229
442	0.1576368
444	0.1644453
446	0.1728259
448	0.1823593
450	0.1929402
452	0.2044016
454	0.2162739
456	0.2283962
458	0.2406836
460	0.2529192
462	0.2648881
464	0.2765247
466	0.2877799
468	0.2988526
470	0.3093401
472	0.3190401
474	0.3282725
476	0.3370909
478	0.3450197
480	0.3521204
482	0.3586639
484	0.3645557
486	0.3697718
488	0.3743089
490	0.3781788
492	0.3813908
494	0.3840229
496	0.3860213
498	0.3874434
500	0.3882641
502	0.388528
504	0.3882153
506	0.387364
508	0.3859728
510	0.3840873
512	0.3816679
514	0.3787543
516	0.3753585
518	0.3715463
520	0.3672882
522	0.3625463
524	0.3573594
526	0.3517758
528	0.3458265
530	0.339486
532	0.3328048
534	0.3257729
536	0.3184529
538	0.3108157
540	0.3028736
542	0.2946965
544	0.2862824
546	0.2776966
548	0.2689267
550	0.2599527
552	0.2508302
554	0.2416627
556	0.2325831
558	0.223485
560	0.2143399
562	0.2052268
564	0.1962215
566	0.1874051
568	0.1787565
570	0.1702982
572	0.1620767
574	0.1541393
576	0.1465536
578	0.1393223
580	0.1324941
582	0.1261463
584	0.1202322
586	0.1147682
588	0.1097829
590	0.1053072
592	0.101364
594	0.0979618
596	0.0951074
598	0.0928185
600	0.0910824
602	0.0898866
604	0.0892319
606	0.0891085
608	0.0895106
610	0.090418
612	0.0917796
614	0.0936017
616	0.0959054
618	0.0986452
620	0.1017768
622	0.1052459
624	0.1090639
626	0.1131789
628	0.1175723
630	0.1222235
632	0.1271071
634	0.1321928
636	0.1374832
638	0.1429559
640	0.1485481
642	0.1541725
644	0.1598556
646	0.1656245
648	0.1714793
650	0.1773552
652	0.1831731
654	0.1889981
656	0.1948013
658	0.2005834
660	0.2063007
662	0.2119858
664	0.2175925
666	0.2230821
668	0.2284538
670	0.2337237
672	0.2388825
674	0.2439243
676	0.2488522
678	0.2536585
680	0.2583517
682	0.2629623
684	0.2674404
686	0.2717555
688	0.2759077
690	0.2799133
692	0.283772
694	0.2874836
696	0.2910481
698	0.29446
700	0.2977231
702	0.3008498
704	0.3038334
706	0.3066734
708	0.3093694
710	0.3119054
712	0.3142939
714	0.3165755
716	0.3187299
718	0.3207676
720	0.322679
722	0.3244545
724	0.3260882
726	0.3275828
728	0.3289396
730	0.3301756
732	0.3312939
734	0.3322907
736	0.3331779
738	0.3339433
740	0.3345582
742	0.3350551
744	0.33543
746	0.335689
748	0.3358289
750	0.3358529
752	0.3357783
754	0.3356203
756	0.3353567
758	0.335013
760	0.334567
762	0.3340305
764	0.3333994
766	0.3326772
768	0.33187
770	0.3309699
772	0.3299385
774	0.3288156
776	0.3275879
778	0.3262605
780	0.324851
782	0.323382
784	0.3218309
786	0.3201948
788	0.3184777
790	0.3166854
792	0.3148295
794	0.3128994
796	0.3108836
798	0.3087892
800	0.3066244
802	0.3043715
804	0.302053
806	0.2996958
808	0.2973047
810	0.2948531
812	0.2923891
814	0.2898752
816	0.2872997
818	0.284638
820	0.2819252
822	0.2791396
824	0.2762952
826	0.2734046
828	0.2704798
830	0.2675162
832	0.2645271
834	0.2614997
836	0.2584359
838	0.2553379
840	0.2522072
842	0.2490303
844	0.2458245
846	0.242592
848	0.2393347
850	0.2360548
852	0.2327544
854	0.2294355
856	0.2261002
858	0.2227507
860	0.219389
862	0.2160339
864	0.2126711
866	0.2093025
868	0.2059304
870	0.2025569
872	0.1991675
874	0.1957811
876	0.1923998
878	0.1890258
880	0.1856613
882	0.1823244
884	0.1790011
886	0.1757022
888	0.1724554
890	0.1692279
892	0.1660217
894	0.1628389
896	0.1596815
898	0.1565515
900	0.153451
902	0.1503674
904	0.1473176
906	0.1443034
908	0.1413267
910	0.1383895
912	0.1355062
914	0.1326653
916	0.1298684
918	0.1271172
920	0.1244133
922	0.1217471
924	0.119132
926	0.1165694
928	0.1140609
930	0.1116078
932	0.1092207
934	0.1068907
936	0.104619
938	0.1024068
940	0.1002552
942	0.0981651
944	0.0961374
946	0.0941732
948	0.0922731
950	0.0904378
952	0.0886633
954	0.0869582
956	0.0853336
958	0.0837769
960	0.0822887
962	0.0808719
964	0.0795234
966	0.0782432
968	0.0770316
970	0.0758888
972	0.0748148
974	0.0738095
976	0.0728729
978	0.0720048
980	0.0712052
982	0.0704758
984	0.0698153
986	0.0692231
988	0.0686989
990	0.0682422
992	0.067848
994	0.0675192
996	0.0672553
998	0.0670558
1000	0.0669197
1002	0.0668562
1004	0.0668547
1006	0.0669144
1008	0.0670345
1010	0.067214
1012	0.0674522
1014	0.067748
1016	0.0681005
1018	0.0685087
1020	0.0689716
1022	0.0694988
1024	0.0700794
1026	0.0707121
1028	0.071396
1030	0.0721298
1032	0.0729
1034	0.0737173
1036	0.0745804
1038	0.0754883
1040	0.0764398
1042	0.0774336
1044	0.0784687
1046	0.0795438
1048	0.0806579
1050	0.0818095
1052	0.0829666
1054	0.0841552
1056	0.0853963
1058	0.086698
1060	0.0880318
1062	0.0893963
1064	0.0907905
1066	0.0922133
1068	0.0936635
1070	0.09514
1072	0.0966589
1074	0.0982021
1076	0.0997687
1078	0.1013576
1080	0.1029675
1082	0.1045799
1084	0.1062113
1086	0.1078617
1088	0.1095309
1090	0.1112161
1092	0.1129139
1094	0.1146256
1096	0.1163512
1098	0.1180902
1100	0.1198405
1102	0.1216019
1104	0.123373
1106	0.125153
1108	0.126941
1110	0.1287362
1112	0.1305377
1114	0.1323451
1116	0.1341574
1118	0.1359739
1120	0.137794
1122	0.1396169
1124	0.141442
1126	0.1432687
1128	0.1450962
1130	0.1469241
1132	0.1487733
1134	0.1506219
1136	0.1524676
1138	0.1543091
1140	0.156148
1142	0.1579686
1144	0.1597859
1146	0.1615993
1148	0.1634082
1150	0.1652122
1152	0.1670108
1154	0.1688037
1156	0.1705903
1158	0.1723704
1160	0.1741435
1162	0.1759093
1164	0.1776674
1166	0.1794175
1168	0.1811593
1170	0.1828924
1172	0.1846166
1174	0.1863314
1176	0.1880383
1178	0.1897377
1180	0.1914271
1182	0.1931028
1184	0.1947676
1186	0.1964228
1188	0.1980686
1190	0.1997033
1192	0.2013254
1194	0.2029357
1196	0.2045354
1198	0.206125
1200	0.2077025
1202	0.2092841
1204	0.2108533
1206	0.2124092
1208	0.2139514
1210	0.2154807
1212	0.2169828
1214	0.2184721
1216	0.21995
1218	0.2214172
1220	0.2228714
1222	0.2243088
1224	0.2257325
1226	0.2271428
1228	0.2285398
1230	0.2299233
1232	0.231297
1234	0.2326575
1236	0.2340045
1238	0.2353378
1240	0.2366575
1242	0.23796
1244	0.2392484
1246	0.2405247
1248	0.2417898
1250	0.2430412
1252	0.2442789
1254	0.2455029
1256	0.2467132
1258	0.2479098
1260	0.2490928
1262	0.2502621
1264	0.2514177
1266	0.2525597
1268	0.2536881
1270	0.2548029
1272	0.2559175
1274	0.2570186
1276	0.2581057
1278	0.2591785
1280	0.2602377
1282	0.2612712
1284	0.2622913
1286	0.2632997
1288	0.2642975
1290	0.265282
1292	0.2662533
1294	0.2672116
1296	0.2681552
1298	0.2690832
1300	0.2699981
1302	0.2709041
1304	0.2717976
1306	0.2726784
1308	0.2735465
1310	0.2744018
1312	0.2752446
1314	0.2760749
1316	0.2768926
1318	0.277698
1320	0.278491
1322	0.2792717
1324	0.2800402
1326	0.2807982
1328	0.2815467
1330	0.2822832
1332	0.2830039
1334	0.2837122
1336	0.2844088
1338	0.2850936
1340	0.2857667
1342	0.286432
1344	0.2870863
1346	0.2877283
1348	0.288358
1350	0.2889763
1352	0.2895889
1354	0.29019
1356	0.2907808
1358	0.2913618
1360	0.2919317
1362	0.2924847
1364	0.2930268
1366	0.2935582
1368	0.2940789
1370	0.2945889
1372	0.2950885
1374	0.2955775
1376	0.2960561
1378	0.2965244
1380	0.2969824
1382	0.2974302
1384	0.2978679
1386	0.2982955
1388	0.2987131
1390	0.2991208
1392	0.2995226
1394	0.299915
1396	0.300296
1398	0.3006648
1400	0.3010239
1402	0.3013736
1404	0.3017138
1406	0.3020464
1408	0.3023723
1410	0.302689
1412	0.3029999
1414	0.3033015
1416	0.3035922
1418	0.303871
1420	0.3041408
1422	0.3044027
1424	0.3046562
1426	0.3049011
1428	0.3051373
1430	0.3053649
1432	0.3055841
1434	0.3057948
1436	0.3059971
1438	0.3061912
1440	0.306377
1442	0.3065546
1444	0.3067241
1446	0.3068855
1448	0.3070389
1450	0.3071844
1452	0.307322
1454	0.3074518
1456	0.3075744
1458	0.3076901
1460	0.3077982
1462	0.3079002
1464	0.307995
1466	0.308081
1468	0.3081578
1470	0.3082273
1472	0.3082895
1474	0.3083445
1476	0.308394
1478	0.3084391
1480	0.3084772
1482	0.3085088
1484	0.3085333
1486	0.308549
1488	0.3085551
1490	0.3085542
1492	0.3085504
1494	0.3085403
1496	0.3085236
1498	0.3085003
1500	0.3084706
1502	0.3084304
1504	0.3083834
1506	0.3083318
1508	0.3082765
1510	0.3082151
1512	0.3081474
1514	0.3080736
1516	0.3079942
1518	0.3079096
1520	0.307819
1522	0.3077201
1524	0.307615
1526	0.3075055
1528	0.3073923
1530	0.3072734
1532	0.3071477
1534	0.3070162
1536	0.3068781
1538	0.306733
1540	0.3065822
1542	0.3064273
1544	0.306267
1546	0.3061031
1548	0.3059366
1550	0.3057648
1552	0.3055837
1554	0.305397
1556	0.3052052
1558	0.3050083
1560	0.3048063
1562	0.3046033
1564	0.3043958
1566	0.3041833
1568	0.303966
1570	0.3037439
1572	0.3035129
1574	0.3032768
1576	0.3030377
1578	0.3027966
1580	0.3025509
1582	0.3022981
1584	0.3020407
1586	0.3017769
1588	0.3015059
1590	0.3012304
1592	0.3009571
1594	0.3006799
1596	0.3003984
1598	0.3001126
1600	0.2998226
1602	0.2995283
1604	0.29923
1606	0.2989275
1608	0.298621
1610	0.2983104
1612	0.2979958
1614	0.2976773
1616	0.2973548
1618	0.2970285
1620	0.2966982
1622	0.2963642
1624	0.2960264
1626	0.2956849
1628	0.2953396
1630	0.2949907
1632	0.2946346
1634	0.2942748
1636	0.2939131
1638	0.2935504
1640	0.2931842
1642	0.2928143
1644	0.2924404
1646	0.2920632
1648	0.2916826
1650	0.2912987
1652	0.2909154
1654	0.2905293
1656	0.2901382
1658	0.2897413
1660	0.2893413
1662	0.288942
1664	0.2885401
1666	0.2881335
1668	0.2877216
1670	0.2873066
1672	0.2868876
1674	0.2864659
1676	0.2860397
1678	0.2856082
1680	0.2851738
1682	0.2847448
1684	0.2843135
1686	0.2838777
1688	0.2834365
1690	0.2829927
1692	0.2825501
1694	0.2821053
1696	0.2816579
1698	0.2812079
1700	0.2807553
1702	0.2802956
1704	0.2798333
1706	0.2793668
1708	0.2788952
1710	0.2784212
1712	0.2779534
1714	0.2774837
1716	0.2770117
1718	0.2765374
1720	0.2760608
1722	0.275582
1724	0.275101
1726	0.2746178
1728	0.2741324
1730	0.2736449
1732	0.2731554
1734	0.2726637
1736	0.27217
1738	0.2716743
1740	0.2711765
1742	0.2706717
1744	0.2701649
1746	0.2696561
1748	0.2691454
1750	0.2686328
1752	0.2681235
1754	0.2676125
1756	0.2670996
1758	0.266585
1760	0.2660686
1762	0.2655505
1764	0.2650307
1766	0.2645092
1768	0.2639862
1770	0.2634615
1772	0.2629336
1774	0.2624046
1776	0.2618722
1778	0.2613358
1780	0.2607978
1782	0.2602638
1784	0.2597284
1786	0.2591915
1788	0.2586532
1790	0.2581135
1792	0.2575763
1794	0.2570382
1796	0.2564971
1798	0.2559521
1800	0.2554059
