Wavelength (nm)	Reflectance
300	0.6068962
302	0.5784359
304	0.5454165
306	0.5080416
308	0.4672548
310	0.4246975
312	0.383017
314	0.345385
316	0.3154243
318	0.2963773
320	0.2901076
322	0.2964461
324	0.3137294
326	0.3388883
328	0.3686164
330	0.4000949
332	0.4310991
334	0.4599689
336	0.4858589
338	0.508268
340	0.5270568
342	0.5424432
344	0.5544549
346	0.563388
348	0.5694582
350	0.5728635
352	0.5737953
354	0.57259
356	0.5690886
358	0.563004
360	0.5534747
362	0.5397583
364	0.521175
366	0.4973807
368	0.4687685
370	0.4366744
372	0.4023393
374	0.3673281
376	0.3334531
378	0.3025991
380	0.2765037
382	0.2559624
384	0.2416137
386	0.2335776
388	0.2315579
390	0.2349614
392	0.2430495
394	0.2548088
396	0.2692492
398	0.2854255
400	0.302485
402	0.3197786
404	0.3367706
406	0.3529452
408	0.3679749
410	0.3819353
412	0.39454
414	0.4056664
416	0.4152721
418	0.42342
420	0.4300664
422	0.435226
424	0.4389768
426	0.4412117
428	0.4420064
430	0.4414738
432	0.4396461
434	0.4365227
436	0.4321824
438	0.42658
440	0.419733
442	0.4118383
444	0.4028356
446	0.3927157
448	0.3816203
450	0.3694983
452	0.3563941
454	0.3425616
456	0.3280116
458	0.3128965
460	0.2972793
462	0.2814052
464	0.2653191
466	0.2491209
468	0.2328131
470	0.2168312
472	0.2016112
474	0.1869707
476	0.1730881
478	0.1605234
480	0.1493537
482	0.139535
484	0.1312552
486	0.1247104
488	0.1198876
490	0.1168177
492	0.115475
494	0.1158689
496	0.1178842
498	0.1214433
500	0.126392
502	0.1326023
504	0.1399144
506	0.1481063
508	0.1571097
510	0.1669779
512	0.1773578
514	0.1879644
516	0.1987092
518	0.2095948
520	0.2205042
522	0.2313719
524	0.2420256
526	0.2524053
528	0.262494
530	0.2721986
532	0.281401
534	0.2901573
536	0.2984916
538	0.3063707
540	0.3137899
542	0.3206835
544	0.3270511
546	0.3328694
548	0.3381668
550	0.3430437
552	0.3474366
554	0.3512808
556	0.3545426
558	0.3573164
560	0.3596927
562	0.3616111
564	0.3630464
566	0.3639954
568	0.3644941
570	0.3645827
572	0.3642519
574	0.3634925
576	0.3623342
578	0.3607671
580	0.3588053
582	0.3564823
584	0.3537894
586	0.3507419
588	0.3473376
590	0.3435832
592	0.3395018
594	0.3350926
596	0.3303632
598	0.3253443
600	0.3200291
602	0.314473
604	0.3086702
606	0.3025919
608	0.2962495
610	0.2896802
612	0.28295
614	0.2760317
616	0.2689406
618	0.2616635
620	0.2542457
622	0.2466986
624	0.2390566
626	0.2313697
628	0.223677
630	0.2159563
632	0.208231
634	0.200531
636	0.1928474
638	0.1852063
640	0.1776577
642	0.1702802
644	0.163038
646	0.1559386
648	0.1490211
650	0.1423322
652	0.1359395
654	0.1298243
656	0.1239978
658	0.1184939
660	0.1133037
662	0.1084034
664	0.1038662
666	0.0997169
668	0.0959681
670	0.0926132
672	0.0896602
674	0.0871133
676	0.084985
678	0.0832702
680	0.0819766
682	0.0811051
684	0.0806515
686	0.0805941
688	0.0809195
690	0.0816225
692	0.0826924
694	0.0841167
696	0.0858823
698	0.0879709
700	0.0903695
702	0.0930703
704	0.0960513
706	0.0992938
708	0.1027792
710	0.1064772
712	0.110378
714	0.1144924
716	0.118787
718	0.1232521
720	0.1278622
722	0.1326134
724	0.137463
726	0.1423966
728	0.1473982
730	0.1524644
732	0.1575556
734	0.1626807
736	0.1678381
738	0.1730016
740	0.1781329
742	0.1832483
744	0.1883318
746	0.193379
748	0.1983778
750	0.2033214
752	0.2082161
754	0.213068
756	0.217849
758	0.222572
760	0.2272135
762	0.2317505
764	0.236202
766	0.2405655
768	0.2448422
770	0.2490202
772	0.2530863
774	0.2570466
776	0.2608858
778	0.2646055
780	0.2682185
782	0.271743
784	0.275156
786	0.2784537
788	0.2816372
790	0.2847101
792	0.2876817
794	0.2905405
796	0.2932726
798	0.295884
800	0.2983822
802	0.3007494
804	0.3030057
806	0.3051769
808	0.3072675
810	0.3092497
812	0.3111464
814	0.3129445
816	0.3146315
818	0.3161813
820	0.3176289
822	0.3189737
824	0.3202062
826	0.3213386
828	0.3223823
830	0.3233319
832	0.3241794
834	0.3249324
836	0.3255924
838	0.3261603
840	0.3266374
842	0.3270279
844	0.3273289
846	0.3275416
848	0.3276673
850	0.3277072
852	0.3276624
854	0.3275342
856	0.3273237
858	0.3270322
860	0.3266607
862	0.3262125
864	0.3256876
866	0.3250873
868	0.3244126
870	0.3236647
872	0.3228407
874	0.3219449
876	0.3209784
878	0.3199426
880	0.3188384
882	0.3176732
884	0.3164427
886	0.3151584
888	0.3138519
890	0.3124835
892	0.3110543
894	0.3095654
896	0.308018
898	0.3064131
900	0.304752
902	0.3030259
904	0.301245
906	0.2994107
908	0.297524
910	0.295586
912	0.2936093
914	0.2915844
916	0.2895123
918	0.2873943
920	0.2852315
922	0.2830124
924	0.2807504
926	0.2784468
928	0.2761027
930	0.2737195
932	0.2713122
934	0.2688687
936	0.2663901
938	0.2638778
940	0.2613331
942	0.2587572
944	0.2561514
946	0.253517
948	0.2508554
950	0.2481678
952	0.24544
954	0.2426917
956	0.2399392
958	0.2371656
960	0.2343725
962	0.2315774
964	0.2287658
966	0.2259391
968	0.2230987
970	0.2202459
972	0.2173822
974	0.214509
976	0.2116278
978	0.2087399
980	0.2058468
982	0.2029335
984	0.2000179
986	0.1971016
988	0.1941858
990	0.1912722
992	0.1883785
994	0.1854896
996	0.1826072
998	0.1797325
1000	0.1768671
1002	0.1740263
1004	0.1711975
1006	0.168382
1008	0.1655812
1010	0.1627967
1012	0.1600296
1014	0.1572815
1016	0.1545537
1018	0.1518476
1020	0.1491642
1022	0.1464911
1024	0.1438439
1026	0.141224
1028	0.1386326
1030	0.1360711
1032	0.1335535
1034	0.1310677
1036	0.1286148
1038	0.126196
1040	0.1238123
1042	0.1214649
1044	0.1191547
1046	0.116883
1048	0.1146505
1050	0.1124585
1052	0.110274
1054	0.1081283
1056	0.1060457
1058	0.1040366
1060	0.102072
1062	0.1001527
1064	0.0982794
1066	0.0964528
1068	0.0946736
1070	0.0929425
1072	0.0912537
1074	0.0896148
1076	0.0880264
1078	0.086489
1080	0.0850029
1082	0.0835729
1084	0.0821941
1086	0.0808681
1088	0.0795958
1090	0.0783756
1092	0.0772058
1094	0.0760882
1096	0.075024
1098	0.0740136
1100	0.073056
1102	0.0721517
1104	0.0713003
1106	0.0705016
1108	0.0697557
1110	0.0690622
1112	0.0684212
1114	0.0678324
1116	0.0672956
1118	0.0668105
1120	0.0663768
1122	0.0659943
1124	0.0656626
1126	0.0653814
1128	0.0651502
1130	0.0649685
1132	0.0648445
1134	0.0647701
1136	0.0647436
1138	0.0647639
1140	0.064832
1142	0.064942
1144	0.0650981
1146	0.0652996
1148	0.0655458
1150	0.0658361
1152	0.0661698
1154	0.0665462
1156	0.0669647
1158	0.0674246
1160	0.0679251
1162	0.0684655
1164	0.0690451
1166	0.0696632
1168	0.0703189
1170	0.0710116
1172	0.0717404
1174	0.0725046
1176	0.0733046
1178	0.07414
1180	0.0750085
1182	0.0759068
1184	0.0768362
1186	0.0777971
1188	0.078789
1190	0.0798101
1192	0.0808584
1194	0.0819341
1196	0.0830373
1198	0.0841677
1200	0.0853232
1202	0.0865195
1204	0.0877399
1206	0.0889828
1208	0.0902475
1210	0.0915338
1212	0.0928246
1214	0.0941353
1216	0.0954663
1218	0.0968173
1220	0.098186
1222	0.0995688
1224	0.1009674
1226	0.1023815
1228	0.1038103
1230	0.1052532
1232	0.1067124
1234	0.1081845
1236	0.1096688
1238	0.1111645
1240	0.1126711
1242	0.114185
1244	0.1157082
1246	0.1172416
1248	0.1187853
1250	0.1203369
1252	0.1218957
1254	0.1234612
1256	0.1250329
1258	0.1266101
1260	0.1281925
1262	0.1297794
1264	0.1313703
1266	0.1329648
1268	0.1345623
1270	0.1361625
1272	0.1377851
1274	0.1394097
1276	0.1410352
1278	0.1426611
1280	0.1442873
1282	0.1458938
1284	0.1474997
1286	0.1491061
1288	0.1507135
1290	0.1523193
1292	0.1539232
1294	0.1555248
1296	0.1571225
1298	0.158715
1300	0.1603042
1302	0.1618931
1304	0.1634785
1306	0.1650597
1308	0.1666365
1310	0.1682085
1312	0.1697756
1314	0.1713374
1316	0.1728937
1318	0.1744442
1320	0.1759887
1322	0.177527
1324	0.1790589
1326	0.1805856
1328	0.1821077
1330	0.1836228
1332	0.1851272
1334	0.1866238
1336	0.1881129
1338	0.1895941
1340	0.1910675
1342	0.1925361
1344	0.1939969
1346	0.1954487
1348	0.196891
1350	0.1983247
1352	0.1997649
1354	0.2011959
1356	0.2026186
1358	0.2040333
1360	0.2054386
1362	0.2068187
1364	0.2081895
1366	0.2095508
1368	0.2109024
1370	0.2122443
1372	0.2135765
1374	0.2148988
1376	0.2162111
1378	0.2175135
1380	0.2188058
1382	0.220088
1384	0.22136
1386	0.2226218
1388	0.2238733
1390	0.2251146
1392	0.2263491
1394	0.2275735
1396	0.2287861
1398	0.2299857
1400	0.2311749
1402	0.2323536
1404	0.2335218
1406	0.234681
1408	0.2358322
1410	0.2369728
1412	0.2381156
1414	0.2392475
1416	0.240367
1418	0.2414732
1420	0.2425686
1422	0.2436448
1424	0.2447107
1426	0.2457661
1428	0.2468109
1430	0.2478452
1432	0.2488689
1434	0.2498821
1436	0.2508848
1438	0.2518769
1440	0.2528585
1442	0.2538297
1444	0.2547904
1446	0.2557407
1448	0.2566806
1450	0.2576101
1452	0.2585292
1454	0.259438
1456	0.2603369
1458	0.2612264
1460	0.2621056
1462	0.2629762
1464	0.2638367
1466	0.2646859
1468	0.2655232
1470	0.2663504
1472	0.2671675
1474	0.2679747
1476	0.2687735
1478	0.269565
1480	0.2703466
1482	0.2711272
1484	0.2718977
1486	0.2726566
1488	0.2734028
1490	0.2741393
1492	0.2748614
1494	0.2755743
1496	0.2762777
1498	0.2769716
1500	0.277656
1502	0.278327
1504	0.2789883
1506	0.2796419
1508	0.2802888
1510	0.2809265
1512	0.281555
1514	0.2821743
1516	0.282785
1518	0.2833874
1520	0.2839808
1522	0.2845629
1524	0.2851358
1526	0.2857012
1528	0.2862599
1530	0.2868098
1532	0.2873572
1534	0.2878958
1536	0.2884247
1538	0.2889435
1540	0.2894536
1542	0.2899491
1544	0.2904363
1546	0.2909167
1548	0.2913915
1550	0.2918579
1552	0.2923122
1554	0.2927578
1556	0.2931953
1558	0.2936247
1560	0.294046
1562	0.2944632
1564	0.294873
1566	0.2952748
1568	0.2956687
1570	0.2960549
1572	0.2964293
1574	0.2967956
1576	0.2971559
1578	0.2975113
1580	0.2978591
1582	0.2982033
1584	0.29854
1586	0.2988673
1588	0.2991844
1590	0.299494
1592	0.2997964
1594	0.3000921
1596	0.3003805
1598	0.3006618
1600	0.300936
1602	0.3012031
1604	0.3014632
1606	0.3017164
1608	0.3019626
1610	0.3022019
1612	0.3024344
1614	0.3026601
1616	0.3028791
1618	0.3030914
1620	0.303297
1622	0.303496
1624	0.3036884
1626	0.3038743
1628	0.3040537
1630	0.3042267
1632	0.3043954
1634	0.3045576
1636	0.3047151
1638	0.3048688
1640	0.3050162
1642	0.3051516
1644	0.3052804
1646	0.305403
1648	0.3055197
1650	0.3056303
1652	0.3057389
1654	0.305842
1656	0.3059375
1658	0.3060245
1660	0.3061057
1662	0.306185
1664	0.3062592
1666	0.306326
1668	0.3063848
1670	0.3064379
1672	0.3064894
1674	0.3065356
1676	0.3065746
1678	0.3066057
1680	0.3066311
1682	0.3066547
1684	0.3066734
1686	0.306685
1688	0.3066886
1690	0.3066871
1692	0.3066843
1694	0.3066769
1696	0.3066643
1698	0.3066467
1700	0.306624
1702	0.3065961
1704	0.3065632
1706	0.3065234
1708	0.3064759
1710	0.3064235
1712	0.3063706
1714	0.3063133
1716	0.3062513
1718	0.3061846
1720	0.3061132
1722	0.3060371
1724	0.3059565
1726	0.3058712
1728	0.3057814
1730	0.3056871
1732	0.3055882
1734	0.305485
1736	0.3053773
1738	0.3052652
1740	0.3051488
1742	0.3050268
1744	0.3049004
1746	0.3047696
1748	0.3046345
1750	0.3044951
1752	0.304353
1754	0.3042067
1756	0.3040564
1758	0.303902
1760	0.3037436
1762	0.3035811
1764	0.3034147
1766	0.3032444
1768	0.3030701
1770	0.3028919
1772	0.3027119
1774	0.3025284
1776	0.3023392
1778	0.3021435
1780	0.301944
1782	0.301743
1784	0.3015382
1786	0.3013298
1788	0.3011178
1790	0.3009022
1792	0.3006871
1794	0.3004688
1796	0.3002453
1798	0.3000156
1800	0.2997825
