Wavelength (nm)	Reflectance
300	0.621413
302	0.6199177
304	0.6139648
306	0.6033311
308	0.5879746
310	0.5678342
312	0.5429654
314	0.5134409
316	0.4796864
318	0.4426709
320	0.4039713
322	0.3659681
324	0.3316063
326	0.304232
328	0.2866713
330	0.2806943
332	0.286595
334	0.3029088
336	0.3272058
338	0.3564653
340	0.3879427
342	0.4196415
344	0.4498653
346	0.47776
348	0.5028225
350	0.5248613
352	0.5438241
354	0.5601162
356	0.573619
358	0.5841655
360	0.5910225
362	0.5935837
364	0.591209
366	0.5834327
368	0.5702825
370	0.5524071
372	0.530213
374	0.5041586
376	0.4749239
378	0.4434376
380	0.4107911
382	0.3775866
384	0.3447252
386	0.3131122
388	0.2836928
390	0.2574789
392	0.2354977
394	0.218356
396	0.2065337
398	0.2001858
400	0.1991233
402	0.202919
404	0.2109394
406	0.2223201
408	0.2362062
410	0.252085
412	0.2691022
414	0.2865716
416	0.3039405
418	0.3208688
420	0.3370039
422	0.3521037
424	0.3660548
426	0.3785051
428	0.3894596
430	0.3990256
432	0.4071834
434	0.4138881
436	0.4191976
438	0.4231895
440	0.4257917
442	0.4270252
444	0.4270078
446	0.4257342
448	0.423218
450	0.41949
452	0.4145795
454	0.408563
456	0.4014424
458	0.39332
460	0.3841787
462	0.374142
464	0.3631904
466	0.351334
468	0.3385156
470	0.3249558
472	0.3109752
474	0.296343
476	0.2811062
478	0.26578
480	0.2504611
482	0.2350348
484	0.2197216
486	0.2048564
488	0.1905134
490	0.1768867
492	0.1641168
494	0.1524025
496	0.1418708
498	0.1327316
500	0.1250111
502	0.1188077
504	0.1141695
506	0.1111652
508	0.1097324
510	0.1099156
512	0.1116436
514	0.1147829
516	0.1192058
518	0.1248626
520	0.1316146
522	0.1393567
524	0.1478825
526	0.1570533
528	0.1667671
530	0.1768584
532	0.1871215
534	0.1975289
536	0.2080308
538	0.2185309
540	0.22896
542	0.2391672
544	0.2491105
546	0.2587032
548	0.267944
550	0.2769315
552	0.2855521
554	0.2936761
556	0.301201
558	0.3082635
560	0.3149829
562	0.3212554
564	0.3270218
566	0.3322482
568	0.3369923
570	0.3413065
572	0.345169
574	0.3485571
576	0.3514894
578	0.3539616
580	0.3559782
582	0.3575317
584	0.35866
586	0.3594008
588	0.3597466
590	0.3596818
592	0.3592346
594	0.3583965
596	0.3571709
598	0.3555843
600	0.3536279
602	0.3513275
604	0.3486938
606	0.3457113
608	0.3423851
610	0.3387353
612	0.3347993
614	0.330566
616	0.3260555
618	0.3212417
620	0.3161509
622	0.3107799
624	0.3051626
626	0.2993334
628	0.2933246
630	0.2871087
632	0.2806997
634	0.2741171
636	0.2673446
638	0.2603967
640	0.2533114
642	0.2461626
644	0.2389076
646	0.2315464
648	0.2241114
650	0.2166471
652	0.2092336
654	0.2018425
656	0.1944839
658	0.1871957
660	0.1799685
662	0.1727563
664	0.1656639
666	0.1587399
668	0.1520114
670	0.1454695
672	0.1391364
674	0.133031
676	0.1271843
678	0.1216061
680	0.1163219
682	0.111313
684	0.1066355
686	0.1023054
688	0.0983309
690	0.0947082
692	0.0914468
694	0.0885528
696	0.086033
698	0.0838884
700	0.0821234
702	0.0807469
704	0.0797522
706	0.0791359
708	0.0788917
710	0.0790011
712	0.0794644
714	0.0802994
716	0.0814807
718	0.0830029
720	0.0848462
722	0.0870015
724	0.0894405
726	0.0921492
728	0.0951117
730	0.0983223
732	0.1017451
734	0.1053783
736	0.109215
738	0.1132272
740	0.1173752
742	0.1216665
744	0.12608
746	0.1306048
748	0.1352228
750	0.1399208
752	0.1446969
754	0.1495496
756	0.1544465
758	0.159392
760	0.164358
762	0.1693107
764	0.1742664
766	0.1792166
768	0.1841563
770	0.1890691
772	0.1939443
774	0.1987753
776	0.2035427
778	0.2082431
780	0.2128837
782	0.2174767
784	0.2219971
786	0.2264375
788	0.2307953
790	0.2350703
792	0.2392681
794	0.2433751
796	0.2473748
798	0.2512704
800	0.2550668
802	0.2587451
804	0.262322
806	0.2658208
808	0.2692441
810	0.2725635
812	0.2757909
814	0.2789213
816	0.2819411
818	0.284824
820	0.2876027
822	0.2902843
824	0.2928501
826	0.2953112
828	0.2976782
830	0.2999452
832	0.3020956
834	0.3041448
836	0.3060934
838	0.3079422
840	0.3096922
842	0.3113545
844	0.3129185
846	0.3143851
848	0.3157552
850	0.3170298
852	0.31821
854	0.3192966
856	0.3202909
858	0.3211938
860	0.3220065
862	0.3227249
864	0.3233562
866	0.3239015
868	0.3243618
870	0.3247383
872	0.3250344
874	0.3252479
876	0.3253797
878	0.325431
880	0.3254028
882	0.3252962
884	0.3251132
886	0.3248652
888	0.3245839
890	0.3242295
892	0.323803
894	0.3233054
896	0.3227377
898	0.3221011
900	0.3213965
902	0.3206207
904	0.3197781
906	0.3188699
908	0.317897
910	0.3168604
912	0.3157675
914	0.3146138
916	0.3134002
918	0.3121279
920	0.3107978
922	0.3094029
924	0.3079516
926	0.3064448
928	0.3048837
930	0.3032692
932	0.3016122
934	0.2999046
936	0.2981474
938	0.2963416
940	0.2944883
942	0.2925885
944	0.2906433
946	0.2886538
948	0.286621
950	0.2845459
952	0.2824172
954	0.280251
956	0.2780639
958	0.2758383
960	0.2735755
962	0.2712901
964	0.2689701
966	0.2666167
968	0.2642309
970	0.2618139
972	0.2593668
974	0.2568909
976	0.2543872
978	0.2518569
980	0.2493014
982	0.2467062
984	0.2440878
986	0.2414475
988	0.2387864
990	0.2361058
992	0.2334229
994	0.2307233
996	0.2280081
998	0.2252787
1000	0.2225363
1002	0.219797
1004	0.2170471
1006	0.214288
1008	0.2115209
1010	0.2087471
1012	0.2059679
1014	0.2031845
1016	0.2003984
1018	0.1976109
1020	0.1948231
1022	0.19202
1024	0.1892195
1026	0.1864228
1028	0.1836312
1030	0.1808462
1032	0.1780848
1034	0.1753324
1036	0.1725902
1038	0.1698595
1040	0.1671416
1042	0.1644377
1044	0.1617491
1046	0.159077
1048	0.1564226
1050	0.1537874
1052	0.1511351
1054	0.1485004
1056	0.1459106
1058	0.1433773
1060	0.1408688
1062	0.1383862
1064	0.1359306
1066	0.1335032
1068	0.1311049
1070	0.1287369
1072	0.126388
1074	0.124072
1076	0.1217898
1078	0.1195425
1080	0.1173311
1082	0.1151671
1084	0.1130402
1086	0.1109523
1088	0.1089051
1090	0.1068974
1092	0.1049278
1094	0.1029989
1096	0.1011126
1098	0.0992699
1100	0.0974702
1102	0.0957148
1104	0.0940038
1106	0.0923377
1108	0.090717
1110	0.0891421
1112	0.0876138
1114	0.0861321
1116	0.0846976
1118	0.0833106
1120	0.0819716
1122	0.0806807
1124	0.0794382
1126	0.0782444
1128	0.0770995
1130	0.0760035
1132	0.0749578
1134	0.0739624
1136	0.0730159
1138	0.0721179
1140	0.0712701
1142	0.0704743
1144	0.0697281
1146	0.069031
1148	0.0683829
1150	0.0677836
1152	0.0672331
1154	0.066731
1156	0.0662772
1158	0.0658713
1160	0.0655132
1162	0.0652024
1164	0.0649387
1166	0.0647216
1168	0.0645509
1170	0.064426
1172	0.0643466
1174	0.0643122
1176	0.0643234
1178	0.0643803
1180	0.0644807
1182	0.0646217
1184	0.0648049
1186	0.0650308
1188	0.0652991
1190	0.0656081
1192	0.0659564
1194	0.066344
1196	0.0667714
1198	0.0672381
1200	0.0677424
1202	0.0682955
1204	0.0688855
1206	0.0695112
1208	0.0701717
1210	0.070867
1212	0.0715842
1214	0.0723343
1216	0.0731176
1218	0.0739341
1220	0.0747812
1222	0.0756558
1224	0.0765594
1226	0.0774916
1228	0.0784516
1230	0.0794387
1232	0.0804548
1234	0.0814969
1236	0.082564
1238	0.0836553
1240	0.0847703
1242	0.0859055
1244	0.0870626
1246	0.0882423
1248	0.0894446
1250	0.0906669
1252	0.0919087
1254	0.0931692
1256	0.0944477
1258	0.0957437
1260	0.0970564
1262	0.0983852
1264	0.0997295
1266	0.1010886
1268	0.1024618
1270	0.1038486
1272	0.1052678
1274	0.1066997
1276	0.1081433
1278	0.1095978
1280	0.111063
1282	0.1125191
1284	0.1139844
1286	0.11546
1288	0.1169458
1290	0.1184394
1292	0.1199403
1294	0.121448
1296	0.1229607
1298	0.1244772
1300	0.1259988
1302	0.1275283
1304	0.1290625
1306	0.1306006
1308	0.1321421
1310	0.1336866
1312	0.1352337
1314	0.1367829
1316	0.1383339
1318	0.1398862
1320	0.1414394
1322	0.1429932
1324	0.1445472
1326	0.1461024
1328	0.1476591
1330	0.149215
1332	0.1507664
1334	0.152316
1336	0.1538637
1338	0.1554092
1340	0.1569522
1342	0.1584956
1344	0.1600362
1346	0.161573
1348	0.1631053
1350	0.1646336
1352	0.166175
1354	0.1677117
1356	0.1692445
1358	0.1707737
1360	0.1722975
1362	0.1737984
1364	0.1752937
1366	0.1767833
1368	0.1782669
1370	0.1797444
1372	0.1812155
1374	0.1826802
1376	0.1841381
1378	0.1855891
1380	0.1870331
1382	0.1884699
1384	0.1898993
1386	0.1913213
1388	0.1927356
1390	0.1941422
1392	0.1955444
1394	0.1969388
1396	0.1983236
1398	0.1996979
1400	0.2010639
1402	0.2024213
1404	0.2037703
1406	0.205112
1408	0.2064474
1410	0.207774
1412	0.2091069
1414	0.2104306
1416	0.2117435
1418	0.2130447
1420	0.2143364
1422	0.2156075
1424	0.2168695
1426	0.2181223
1428	0.2193657
1430	0.2205995
1432	0.2218239
1434	0.2230386
1436	0.2242437
1438	0.2254392
1440	0.226625
1442	0.2278011
1444	0.2289675
1446	0.2301241
1448	0.2312708
1450	0.2324078
1452	0.233535
1454	0.2346522
1456	0.2357601
1458	0.2368589
1460	0.2379478
1462	0.2390283
1464	0.2400991
1466	0.2411588
1468	0.2422069
1470	0.2432451
1472	0.2442734
1474	0.2452918
1476	0.246302
1478	0.2473048
1480	0.2482978
1482	0.2492924
1484	0.2502769
1486	0.2512497
1488	0.2522099
1490	0.2531601
1492	0.2540933
1494	0.255017
1496	0.2559311
1498	0.2568354
1500	0.25773
1502	0.2586112
1504	0.2594823
1506	0.2603455
1508	0.2612016
1510	0.2620481
1512	0.2628852
1514	0.2637127
1516	0.2645312
1518	0.265341
1520	0.2661415
1522	0.2669302
1524	0.2677094
1526	0.2684806
1528	0.2692446
1530	0.2699993
1532	0.2707537
1534	0.2714986
1536	0.2722334
1538	0.2729575
1540	0.2736724
1542	0.2743698
1544	0.2750582
1546	0.2757394
1548	0.2764142
1550	0.2770802
1552	0.2777334
1554	0.2783775
1556	0.2790128
1558	0.2796394
1560	0.2802574
1562	0.2808706
1564	0.2814756
1566	0.2820722
1568	0.2826602
1570	0.2832398
1572	0.283807
1574	0.2843655
1576	0.2849174
1578	0.2854635
1580	0.2860015
1582	0.2865376
1584	0.2870653
1586	0.2875831
1588	0.2880899
1590	0.2885886
1592	0.2890771
1594	0.2895581
1596	0.2900313
1598	0.2904966
1600	0.2909541
1602	0.2914038
1604	0.2918458
1606	0.2922802
1608	0.2927069
1610	0.2931261
1612	0.2935376
1614	0.2939417
1616	0.2943384
1618	0.2947276
1620	0.2951095
1622	0.295484
1624	0.2958513
1626	0.2962113
1628	0.2965641
1630	0.2969098
1632	0.2972525
1634	0.2975881
1636	0.2979181
1638	0.2982437
1640	0.2985622
1642	0.2988659
1644	0.2991623
1646	0.2994519
1648	0.2997348
1650	0.3000109
1652	0.3002843
1654	0.3005515
1656	0.3008104
1658	0.30106
1660	0.3013031
1662	0.3015438
1664	0.3017784
1666	0.3020051
1668	0.302223
1670	0.3024346
1672	0.3026457
1674	0.3028508
1676	0.3030479
1678	0.3032364
1680	0.3034186
1682	0.3035964
1684	0.3037685
1686	0.3039329
1688	0.3040887
1690	0.3042385
1692	0.3043865
1694	0.3045291
1696	0.3046659
1698	0.3047969
1700	0.3049222
1702	0.3050434
1704	0.3051587
1706	0.3052666
1708	0.3053661
1710	0.3054599
1712	0.3055509
1714	0.3056369
1716	0.3057174
1718	0.3057925
1720	0.3058623
1722	0.3059268
1724	0.305986
1726	0.3060399
1728	0.3060887
1730	0.3061323
1732	0.3061707
1734	0.306204
1736	0.3062323
1738	0.3062555
1740	0.3062737
1742	0.3062873
1744	0.3062957
1746	0.3062992
1748	0.3062977
1750	0.3062913
1752	0.3062799
1754	0.3062638
1756	0.306243
1758	0.3062174
1760	0.3061872
1762	0.3061524
1764	0.3061129
1766	0.3060689
1768	0.3060204
1770	0.3059673
1772	0.3059133
1774	0.3058551
1776	0.3057906
1778	0.305719
1780	0.3056429
1782	0.3055632
1784	0.3054793
1786	0.3053911
1788	0.3052986
1790	0.305202
1792	0.3051052
1794	0.3050048
1796	0.3048984
1798	0.3047853
1800	0.3046682
